EXPLAIN
TAG	EISPOT
TITLE	LABEL	PCN nitrogen-doped porous carbon - EIS	&Title
DATE	LABEL	7/7/2026	&Date
TIME	LABEL	12:00:00	&Time
NOTES	LINES	6	CC0 1.0 open data - Zhang and Wei (USN), doi:10.18710/F4NFMJ
Data: Zhang and Wei, Univ. of South-Eastern Norway (CC0 1.0).
Electrochemical and Structural Data of Carbon-Based Materials
for Energy Storage. doi:10.18710/F4NFMJ
Z' and Z'' are measured values. The source CSV omits the
frequency column; the frequency axis here is reconstructed as
log-spaced 100 kHz - 10 mHz (60 points, typical sweep).
FREQINIT	QUANT	100000.	&Initial Freq. (Hz)
FREQFINAL	QUANT	0.01	&Final Freq. (Hz)
NUMFREQ	QUANT	60	&Number of Freq. Points
ZCURVE	TABLE	60
Pt	Freq	Zreal	Zimag	Zmod	Zphz
#	Hz	ohm	ohm	ohm	deg
0	100000	1.489	0.3847	1.53789	14.4862
1	76095	1.515	0.2193	1.53079	8.2365
2	57904.4	1.553	0.01824	1.55311	0.672909
3	44062.4	1.615	-0.1269	1.61998	-4.49283
4	33529.2	1.683	-0.269	1.70436	-9.08098
5	25514.1	1.764	-0.3851	1.80555	-12.3151
6	19414.9	1.851	-0.4958	1.91625	-14.995
7	14773.8	1.947	-0.5933	2.03539	-16.9473
8	11242.1	2.049	-0.684	2.16015	-18.4601
9	8554.67	2.156	-0.7647	2.2876	-19.5288
10	6509.68	2.271	-0.8268	2.41682	-20.005
11	4953.54	2.39	-0.8865	2.54911	-20.3508
12	3769.39	2.504	-0.9611	2.68211	-20.9981
13	2868.32	2.616	-1.042	2.81589	-21.7183
14	2182.64	2.726	-1.131	2.95131	-22.5333
15	1660.88	2.836	-1.224	3.08886	-23.3447
16	1263.85	2.953	-1.329	3.23828	-24.2302
17	961.725	3.08	-1.455	3.40638	-25.2862
18	731.824	3.216	-1.609	3.59604	-26.5793
19	556.881	3.372	-1.79	3.81765	-27.9613
20	423.759	3.554	-1.995	4.07565	-29.3072
21	322.459	3.77	-2.225	4.37762	-30.5485
22	245.375	4.037	-2.466	4.73059	-31.4187
23	186.718	4.352	-2.726	5.13527	-32.0622
24	142.083	4.7	-2.998	5.57476	-32.5327
25	108.118	5.095	-3.255	6.04599	-32.5729
26	82.2724	5.597	-3.514	6.60868	-32.1221
27	62.6052	6.197	-3.752	7.24433	-31.193
28	47.6394	6.764	-3.926	7.82082	-30.132
29	36.2512	7.288	-4.035	8.33044	-28.9711
30	27.5853	7.884	-4.1	8.88636	-27.4763
31	20.991	8.476	-4.127	9.42734	-25.9616
32	15.9731	9.037	-4.121	9.93227	-24.5137
33	12.1547	9.642	-4.088	10.4728	-22.9759
34	9.24915	10.17	-4.051	10.9471	-21.7188
35	7.03814	10.61	-4.017	11.345	-20.7369
36	5.35567	11.05	-3.988	11.7476	-19.8448
37	4.07539	11.48	-3.978	12.1497	-19.112
38	3.10117	11.89	-3.991	12.5419	-18.5549
39	2.35983	12.31	-4.016	12.9485	-18.0683
40	1.79571	12.74	-4.057	13.3704	-17.6639
41	1.36645	13.17	-4.134	13.8036	-17.4268
42	1.0398	13.6	-4.252	14.2492	-17.3617
43	0.791234	14.04	-4.409	14.716	-17.4339
44	0.602089	14.5	-4.596	15.211	-17.5868
45	0.45816	14.98	-4.813	15.7342	-17.812
46	0.348637	15.47	-5.056	16.2753	-18.0987
47	0.265295	15.96	-5.321	16.8236	-18.4382
48	0.201876	16.48	-5.616	17.4106	-18.8179
49	0.153617	17.02	-5.95	18.0301	-19.2691
50	0.116895	17.62	-6.329	18.7222	-19.758
51	0.0889513	18.27	-6.764	19.4819	-20.3158
52	0.0676875	18.99	-7.266	20.3326	-20.938
53	0.0515068	19.76	-7.817	21.25	-21.5836
54	0.0391941	20.62	-8.462	22.2888	-22.3122
55	0.0298247	21.55	-9.233	23.4446	-23.1925
56	0.0226951	22.74	-10.22	24.931	-24.2005
57	0.0172698	24.13	-11.42	26.6959	-25.3268
58	0.0131415	25.43	-12.74	28.4428	-26.6101
59	0.01	26.65	-14.2	30.1971	-28.0502
